"Time (s)","Acceleration x (m/s^2)","Acceleration y (m/s^2)","Acceleration z (m/s^2)","Absolute acceleration (m/s^2)"
1.189124996E-3,-6.357279968E0,1.742825775E0,5.905669098E0,8.850388566E0
1.125612500E-2,-6.117628326E0,2.019749908E0,6.225404205E0,8.958818201E0
2.132212499E-2,-5.842201080E0,2.402953033E0,6.958729248E0,9.398372704E0
3.138812500E-2,-5.499264221E0,2.776426392E0,7.697143707E0,9.858827097E0
4.145412500E-2,-4.990621948E0,2.993325348E0,8.354426880E0,1.018149068E1
5.152012499E-2,-4.592899017E0,3.046165466E0,8.876840515E0,1.044854741E1
6.158712500E-2,-4.448449402E0,3.058140564E0,9.172475739E0,1.064308400E1
7.165312500E-2,-4.402345276E0,3.103196869E0,9.317224731E0,1.076202358E1
8.171912500E-2,-4.390220490E0,3.184777222E0,9.329349518E0,1.079136712E1
9.178512500E-2,-4.496050415E0,3.195405121E0,9.125623169E0,1.066311781E1
1.018511250E-1,-4.631219330E0,3.094963989E0,8.833580475E0,1.044313835E1
1.119171250E-1,-4.787793732E0,2.995420990E0,8.575517120E0,1.026815512E1
1.219841250E-1,-4.924459534E0,2.954705658E0,8.473429413E0,1.023619037E1
1.320501250E-1,-4.944667511E0,2.961591339E0,8.539142761E0,1.030231620E1
1.421161250E-1,-4.772974548E0,3.039579163E0,8.626111908E0,1.031649815E1
1.521821250E-1,-4.528383179E0,3.172502747E0,8.617879028E0,1.023908525E1
1.622481250E-1,-4.224215698E0,3.334765320E0,8.567284241E0,1.011746101E1
1.723141250E-1,-3.952830048E0,3.476370850E0,8.502768402E0,1.000035450E1
1.823811250E-1,-3.755240936E0,3.463647308E0,8.453371124E0,9.877153969E0
1.924471250E-1,-3.644321594E0,3.345243530E0,8.513695679E0,9.846560225E0
2.025131250E-1,-3.685785370E0,3.174448700E0,8.548573151E0,9.835661709E0
2.125791250E-1,-3.837569733E0,3.050356750E0,8.496182098E0,9.809012591E0
2.226451250E-1,-3.929478607E0,2.974464569E0,8.413703613E0,9.750828175E0
2.327121250E-1,-3.963308258E0,2.802621918E0,8.415200500E0,9.714839238E0
2.427781250E-1,-3.823648682E0,2.662363586E0,8.467591553E0,9.664811214E0
2.528441250E-1,-3.530109100E0,2.501747589E0,8.491092682E0,9.529903787E0
2.629101250E-1,-3.222349091E0,2.390379181E0,8.245154114E0,9.169515399E0
2.729761250E-1,-3.044668579E0,2.459834747E0,8.070317688E0,8.969438183E0
2.830421250E-1,-2.748434601E0,2.580334167E0,7.995922394E0,8.840067426E0
2.931091250E-1,-2.328408051E0,2.648143158E0,7.966433716E0,8.711958011E0
3.031751250E-1,-1.902244263E0,2.659818878E0,7.940238190E0,8.587231929E0
3.132411250E-1,-1.856589203E0,2.579735413E0,7.659871216E0,8.293104685E0
3.233071250E-1,-2.095642090E0,2.473157043E0,7.233707428E0,7.926836991E0
3.333731250E-1,-2.191592560E0,2.395468597E0,6.869514771E0,7.598130094E0
3.434401250E-1,-2.118843842E0,2.287543030E0,6.723568268E0,7.411391407E0
3.535061250E-1,-1.845362549E0,2.195334778E0,6.631659393E0,7.225217231E0
3.635721250E-1,-1.530417480E0,2.132166138E0,6.647975464E0,7.147299341E0
3.736381250E-1,-1.292711792E0,1.977537689E0,6.813381500E0,7.211374804E0
3.837041250E-1,-1.089434509E0,1.775757294E0,7.125931549E0,7.424222650E0
3.937701250E-1,-9.050180054E-1,1.694326630E0,7.937843170E0,8.166955033E0
4.038371250E-1,-5.388793945E-1,1.664987640E0,8.498277740E0,8.676594920E0
4.139031250E-1,-1.064286804E-1,1.613794098E0,8.435707855E0,8.589343716E0
4.239691250E-1,9.909393311E-2,1.569635925E0,8.210875397E0,8.360146609E0
4.340351250E-1,8.577163696E-1,1.566342773E0,7.743846588E0,7.947091734E0
4.441011250E-1,7.878117371E-1,1.385219421E0,6.819518738E0,7.003236109E0
4.541681250E-1,1.181044006E-1,1.296603699E0,6.262227631E0,6.396141391E0
4.642340833E-1,2.362088013E-1,1.103355560E0,5.898933105E0,6.005880441E0
4.743000833E-1,4.352947998E-1,7.664062500E-1,6.183042297E0,6.245548187E0
4.843660833E-1,5.569917297E-1,5.062472534E-1,6.747069397E0,6.788922707E0
4.944320833E-1,1.032253418E0,3.162922668E-1,7.155719604E0,7.236705810E0
5.044980833E-1,1.671723633E0,1.739382935E-1,7.532486115E0,7.717723855E0
5.145650833E-1,2.330803070E0,2.574645996E-2,7.349566498E0,7.710345877E0
5.246310833E-1,2.488275604E0,-2.079176331E-1,6.901847534E0,7.339635182E0
5.346970833E-1,2.315085754E0,-2.917433167E-1,6.401288452E0,6.813312708E0
5.447630833E-1,2.217638397E0,-1.809736633E-1,5.841752014E0,6.251138946E0
5.548290833E-1,2.640209656E0,9.954299927E-2,5.263803864E0,5.889672907E0
5.648950833E-1,2.760409698E0,1.953437805E-1,5.207371216E0,5.897010758E0
5.749620833E-1,2.524200897E0,2.025288391E-1,5.558690643E0,6.108326266E0
5.850280833E-1,2.206112366E0,1.375639343E-1,6.455026703E0,6.822992404E0
5.950940833E-1,2.471959534E0,-1.152603149E-1,7.364984436E0,7.769611613E0
6.051600833E-1,3.450923767E0,-5.918692017E-1,7.945776672E0,8.683003566E0
6.152260833E-1,4.345313873E0,-1.048569489E0,8.424630890E0,9.537067487E0
6.252930833E-1,4.856949921E0,-1.229243774E0,8.465046844E0,9.836565502E0
6.353590833E-1,4.991819458E0,-1.275946655E0,8.280480652E0,9.752572030E0
6.454250833E-1,5.311554565E0,-1.199306030E0,8.192613373E0,9.837167312E0
6.554910833E-1,5.912854156E0,-1.077010345E0,8.303832092E0,1.025063037E1
6.655570833E-1,6.567592621E0,-1.191671906E0,8.231382751E0,1.059759486E1
6.756230833E-1,7.219337311E0,-1.560355225E0,8.136629791E0,1.098900742E1
6.856900833E-1,8.469986572E0,-1.364412689E0,8.021968231E0,1.174539352E1
6.957560833E-1,9.651779022E0,-5.117857361E-1,8.139773254E0,1.263624436E1
7.058220833E-1,1.045246399E1,2.269281006E-1,8.613837433E0,1.354635357E1
7.158880833E-1,1.099957626E1,2.553689575E-1,8.779991913E0,1.407636847E1
7.259540833E-1,1.141645935E1,-2.993774414E-4,8.586294708E0,1.428495716E1
7.360210833E-1,1.192450287E1,2.047741699E-1,8.271349640E0,1.451381845E1
7.460870833E-1,1.252385651E1,7.171586609E-1,7.707322540E0,1.472291137E1
7.561530833E-1,1.245589783E1,1.103654938E0,6.818021851E0,1.424264255E1
7.662190833E-1,1.198377960E1,1.115031281E0,5.757926331E0,1.334196327E1
7.762850833E-1,1.161090500E1,8.607101440E-1,4.996010742E0,1.266941436E1
7.863510833E-1,1.114986374E1,3.772155762E-1,4.722679138E0,1.211467916E1
7.964180833E-1,1.056158707E1,-2.600093079E-1,4.806205444E0,1.160665055E1
8.064840833E-1,9.873468018E0,-9.159452820E-1,4.945266266E0,1.108061302E1
8.165500833E-1,9.172176361E0,-1.536554718E0,5.026547241E0,1.057147089E1
8.266160833E-1,8.733738098E0,-2.119891663E0,5.204227753E0,1.038537955E1
8.366820833E-1,8.889414368E0,-2.480192413E0,5.486690369E0,1.073670403E1
8.467490833E-1,9.072783051E0,-2.852019196E0,5.960754547E0,1.122408128E1
8.568150833E-1,9.095535736E0,-3.369942169E0,6.403084717E0,1.162259758E1
8.668810833E-1,9.355245667E0,-3.605851593E0,6.454278259E0,1.192394629E1
8.769470833E-1,9.482630768E0,-3.550766144E0,6.432872772E0,1.199625269E1
8.870130833E-1,9.476044464E0,-3.386856995E0,6.310876465E0,1.187827347E1
8.970790833E-1,9.785001984E0,-3.333567810E0,6.005212097E0,1.195497848E1
9.071460833E-1,1.013482452E1,-3.497926025E0,5.616470490E0,1.210350756E1
9.172120833E-1,1.031055908E1,-3.994593201E0,5.437891846E0,1.232213744E1
9.272780833E-1,1.081785416E1,-4.539759521E0,5.526657257E0,1.296839718E1
9.373440833E-1,1.139535324E1,-4.773722992E0,5.491630096E0,1.352037380E1
9.474100833E-1,1.175610306E1,-4.697980499E0,5.657036133E0,1.386647171E1
9.574770833E-1,1.163275955E1,-4.624333649E0,5.763913879E0,1.378144621E1
9.675430833E-1,1.160267212E1,-4.539609833E0,5.524112549E0,1.362886192E1
9.776090833E-1,1.159593613E1,-4.405638428E0,5.378465424E0,1.352047614E1
9.876750833E-1,1.135254227E1,-4.334087219E0,5.375621338E0,1.328765716E1
9.977410833E-1,1.118548965E1,-4.285288696E0,5.464686127E0,1.316592847E1
1.007807083E0,1.108774292E1,-4.180506592E0,5.815257111E0,1.319969294E1
1.017874083E0,1.089703949E1,-3.941753082E0,6.419700165E0,1.324746909E1
1.027940083E0,1.070229446E1,-3.573069763E0,6.872807922E0,1.321141261E1
1.038006083E0,1.055979080E1,-3.095712433E0,6.629563751E0,1.284693476E1
1.048072083E0,1.026086243E1,-2.587369537E0,6.365662537E0,1.234914727E1
1.058138083E0,9.931098175E0,-2.264640656E0,6.546935577E0,1.210857852E1
1.068205083E0,9.705068207E0,-2.151625671E0,6.400240631E0,1.182289821E1
1.078271083E0,9.644743652E0,-1.906285858E0,5.688171387E0,1.135827010E1
1.088337083E0,9.456435242E0,-1.647324371E0,4.899162140E0,1.077681004E1
1.098403083E0,9.330696716E0,-1.438807983E0,4.276157684E0,1.036424595E1
1.108469083E0,9.341025238E0,-1.330133972E0,3.805386658E0,1.017373955E1
1.118535083E0,9.415869598E0,-1.319655762E0,3.495381317E0,1.013004354E1
1.128602083E0,9.353000336E0,-1.322649536E0,3.324137421E0,1.001388569E1
1.138668083E0,9.188342743E0,-1.259031830E0,3.252885590E0,9.828126381E0
1.148734083E0,8.992400208E0,-1.246907043E0,3.299887848E0,9.659570305E0
1.158800083E0,8.952133942E0,-1.201102295E0,3.382965088E0,9.645092100E0
1.168866083E0,9.404493256E0,-1.317709808E0,3.689527588E0,1.018790785E1
1.178933083E0,1.048539551E1,-1.331481171E0,3.542982330E0,1.114760444E1
1.188999083E0,1.131556915E1,-1.401236115E0,3.276386719E0,1.186340077E1
1.199065083E0,1.085318069E1,-1.366059265E0,3.332070923E0,1.143504900E1
1.209131083E0,9.785750427E0,-1.263073425E0,3.332669678E0,1.041455487E1
1.219197083E0,8.857680359E0,-9.400451660E-1,3.116818542E0,9.436988083E0
1.229263083E0,8.028404846E0,-9.017248535E-1,2.726280670E0,8.526488045E0
1.239330083E0,7.246730347E0,-1.175655212E0,2.568808136E0,7.777920103E0
1.249396083E0,7.004983063E0,-1.285975800E0,2.443368988E0,7.529513495E0
1.259462083E0,7.087461548E0,-1.224304047E0,2.370620270E0,7.573035855E0
1.269528083E0,7.449857941E0,-1.210083618E0,2.420616302E0,7.926163573E0
1.279594083E0,8.185877380E0,-1.459465027E0,2.482288055E0,8.677579192E0
1.289661083E0,8.745862885E0,-1.929786987E0,2.676284637E0,9.347550207E0
1.299727083E0,9.604028320E0,-1.522184601E0,2.776875458E0,1.011263780E1
1.309793083E0,1.036759048E1,-1.528621216E0,2.655028839E0,1.081077210E1
1.319859083E0,1.076561279E1,-1.356030121E0,2.598296814E0,1.115743621E1
1.329925083E0,1.094000015E1,-1.145567780E0,2.473606110E0,1.127451356E1
1.339991083E0,1.098954712E1,-1.157692566E0,2.356399841E0,1.129880605E1
1.350058083E0,1.074390793E1,-1.268761597E0,2.196532288E0,1.103929652E1
1.360124083E0,1.053569092E1,-1.536554718E0,2.100731506E0,1.085241247E1
1.370190083E0,1.050186127E1,-2.044149170E0,2.079775085E0,1.089922476E1
1.380256083E0,1.072145462E1,-2.587070160E0,2.169288940E0,1.124047756E1
1.390322083E0,1.100421661E1,-3.062631226E0,2.299069061E0,1.165153260E1
1.400389083E0,1.139235947E1,-3.494932251E0,2.413281555E0,1.215830307E1
1.410455083E0,1.174787018E1,-3.927832031E0,2.632575531E0,1.266375821E1
1.420521083E0,1.207254501E1,-4.240082703E0,2.728675690E0,1.308320738E1
1.430587083E0,1.235770203E1,-4.355941772E0,2.661166077E0,1.337044625E1
1.440653083E0,1.248104553E1,-4.418511658E0,2.483335876E0,1.347095765E1
1.450719083E0,1.248209335E1,-4.379293213E0,2.245181122E0,1.341721662E1
1.460786708E0,1.237117401E1,-4.274660797E0,1.969005432E0,1.323614951E1
1.470852708E0,1.195099777E1,-4.105811920E0,1.980830841E0,1.279092374E1
1.480918708E0,1.172481812E1,-3.864962769E0,1.915416870E0,1.249312286E1
1.490984708E0,1.150582352E1,-3.616778870E0,1.891316986E0,1.220828178E1
1.501050708E0,1.134969818E1,-3.442092133E0,1.964814148E0,1.202181940E1
1.511117708E0,1.129146927E1,-3.417842560E0,2.114053802E0,1.198533060E1
1.521183708E0,1.106154739E1,-3.421285400E0,2.355950775E0,1.181581688E1
1.531249708E0,1.081156723E1,-3.372636566E0,2.541564789E0,1.160707607E1
1.541315708E0,1.063882645E1,-3.333418121E0,2.702480164E0,1.147169140E1
1.551381708E0,1.060529617E1,-3.268153839E0,2.790946198E0,1.144301172E1
1.561447708E0,1.061891785E1,-3.219804382E0,2.810256042E0,1.144666307E1
1.571514708E0,1.064451462E1,-3.194656677E0,2.739453278E0,1.144622763E1
1.581580708E0,1.071546707E1,-3.246299286E0,2.652184753E0,1.150624950E1
1.591646708E0,1.078926361E1,-3.406915283E0,2.553689575E0,1.159899183E1
1.601712708E0,1.087204147E1,-3.631747742E0,2.478096771E0,1.172739703E1
1.611778708E0,1.090931396E1,-3.859723663E0,2.482587433E0,1.183527939E1
1.621845708E0,1.076935501E1,-4.039200439E0,2.533780975E0,1.177769899E1
1.631911708E0,1.057580750E1,-4.109105072E0,2.621348877E0,1.164490956E1
1.641977708E0,1.036848862E1,-4.117188263E0,2.620750122E0,1.145971756E1
1.652043708E0,1.014635056E1,-4.049528961E0,2.576741638E0,1.122438024E1
1.662109708E0,9.710007935E0,-3.944597168E0,2.578388214E0,1.079315462E1
1.672175708E0,8.496481476E0,-4.312232666E0,2.552192688E0,9.864037487E0
1.682242708E0,8.090226288E0,-4.314927063E0,2.656376038E0,9.546030096E0
1.692308708E0,9.303902435E0,-3.132535858E0,3.197351074E0,1.032465183E1
1.702374708E0,8.821755066E0,-3.864962769E0,3.207829285E0,1.015142691E1
1.712440708E0,9.181157684E0,-3.973786469E0,2.816992035E0,1.039327087E1
1.722506708E0,1.037238052E1,-2.798879700E0,2.754571838E0,1.109088235E1
1.732573708E0,9.631121979E0,-3.556604004E0,2.490221558E0,1.056452299E1
1.742639708E0,9.806257782E0,-3.537593536E0,2.598446503E0,1.074379746E1
1.752705708E0,9.581724701E0,-3.477867737E0,2.559228058E0,1.050974122E1
1.762771708E0,9.173523560E0,-3.492686920E0,2.305954742E0,1.008314553E1
1.772837708E0,8.879235535E0,-3.163820801E0,2.100731506E0,9.657311148E0
1.782903708E0,8.509504395E0,-2.939437408E0,1.939816132E0,9.209497486E0
1.792970708E0,8.271199951E0,-2.736010437E0,1.836381226E0,8.903414949E0
1.803036708E0,8.060288544E0,-2.636916504E0,1.833088074E0,8.676508050E0
1.813102708E0,7.873776398E0,-2.624192963E0,1.856888580E0,8.504750359E0
1.823168708E0,7.702532501E0,-2.588567047E0,1.830393677E0,8.329467408E0
1.833234708E0,7.496411133E0,-2.594554596E0,1.739532623E0,8.121198629E0
1.843301708E0,7.299720154E0,-2.614163818E0,1.601819000E0,7.917423249E0
1.853367708E0,7.149133301E0,-2.650687866E0,1.473535767E0,7.765794278E0
1.863433708E0,7.044201508E0,-2.689307556E0,1.385369110E0,7.666315776E0
1.873499708E0,6.919959869E0,-2.715503082E0,1.339564362E0,7.553425333E0
1.883565708E0,6.766229553E0,-2.758314056E0,1.323547668E0,7.425761727E0
1.893631708E0,6.639143829E0,-2.745590515E0,1.356778564E0,7.311453080E0
1.903698708E0,6.591542816E0,-2.769989777E0,1.378932495E0,7.281671160E0
1.913764708E0,6.576573944E0,-2.776576080E0,1.462608490E0,7.286969409E0
1.923830708E0,6.621181183E0,-2.795436859E0,1.550176392E0,7.352384262E0
1.933896708E0,6.771169281E0,-2.828518066E0,1.604812775E0,7.511635769E0
1.943962708E0,6.938820648E0,-2.848127289E0,1.699116669E0,7.690647469E0
1.954029708E0,6.998546448E0,-2.845432892E0,1.753453674E0,7.755690847E0
1.964095708E0,7.032226410E0,-2.787203979E0,1.783092041E0,7.771752153E0
1.974161708E0,7.120542755E0,-2.683769073E0,1.793121185E0,7.817929979E0
1.984227708E0,7.218888245E0,-2.596650238E0,1.832339630E0,7.887484293E0
1.994293708E0,7.341932373E0,-2.509830780E0,1.910926208E0,7.990923632E0
2.004360708E0,7.456593933E0,-2.477198639E0,2.023641815E0,8.113718776E0
2.014426708E0,7.642657013E0,-2.490071869E0,2.160157928E0,8.323277384E0
2.024492708E0,7.924221497E0,-2.559078369E0,2.314037933E0,8.642739148E0
2.034558708E0,8.409961395E0,-2.709515533E0,2.390229492E0,9.153257460E0
2.044624708E0,9.060358887E0,-2.949765930E0,2.357297974E0,9.815705575E0
2.054690708E0,9.753866730E0,-3.296744385E0,2.266287231E0,1.054241422E1
2.064757708E0,1.043809387E1,-3.525169373E0,2.121388550E0,1.121966631E1
2.074823708E0,1.100227066E1,-3.612737274E0,1.911674652E0,1.173696427E1
2.084889708E0,1.133293304E1,-3.563639374E0,1.648372192E0,1.199383291E1
2.094955708E0,1.140957367E1,-3.473526764E0,1.404828644E0,1.200905088E1
2.105021708E0,1.141541153E1,-3.558100891E0,1.212029572E0,1.201834922E1
2.115087708E0,1.126572281E1,-3.808979187E0,1.202599182E0,1.195286901E1
2.125154708E0,1.101379669E1,-4.022584991E0,1.333427124E0,1.180097180E1
2.135220708E0,1.085063599E1,-4.346661072E0,1.471889191E0,1.178118082E1
2.145286708E0,1.076246933E1,-4.739743652E0,1.697021027E0,1.188174214E1
2.155352708E0,1.100301910E1,-5.102738800E0,2.108515320E0,1.231057308E1
2.165418708E0,1.149324966E1,-5.368885345E0,2.426154785E0,1.291533758E1
2.175485708E0,1.192270660E1,-5.494923248E0,2.632575531E0,1.338938267E1
2.185551708E0,1.205757614E1,-5.378615112E0,2.735860748E0,1.348330735E1
2.195617708E0,1.183947968E1,-5.278623047E0,2.715952148E0,1.324437754E1
2.205683708E0,1.101065323E1,-4.805457001E0,2.669848022E0,1.230670508E1
2.215749708E0,1.001821701E1,-3.981570282E0,2.566263428E0,1.108166422E1
2.225816708E0,9.177265778E0,-3.083587646E0,2.410736847E0,9.977092366E0
2.235882708E0,8.528365173E0,-2.274370422E0,2.379302216E0,9.141490709E0
2.245948708E0,8.309520264E0,-1.652713165E0,2.448458405E0,8.818987265E0
2.256014708E0,8.589887238E0,-1.324595490E0,2.464924164E0,9.034188790E0
2.266080708E0,9.063951416E0,-1.269060974E0,2.473456421E0,9.480702384E0
2.276146708E0,9.673932953E0,-1.369801483E0,2.508184204E0,1.008723564E1
2.286213708E0,1.035142410E1,-1.451082458E0,2.578986969E0,1.076609470E1
2.296279708E0,1.099463654E1,-1.494192810E0,2.609074402E0,1.139832944E1
2.306345708E0,1.143771515E1,-1.567091217E0,2.633623352E0,1.184116019E1
2.316411708E0,1.174487640E1,-1.571581879E0,2.624192963E0,1.213665440E1
2.326477708E0,1.191103088E1,-1.535506897E0,2.492766266E0,1.226557466E1
2.336544708E0,1.189202042E1,-1.487157440E0,2.340532837E0,1.221105568E1
2.346610708E0,1.174981613E1,-1.432521057E0,2.201771393E0,1.203985436E1
2.356676708E0,1.146825165E1,-1.392105103E0,2.103725281E0,1.174241936E1
2.366742708E0,1.103325623E1,-1.330732727E0,2.061363373E0,1.130277893E1
2.376808708E0,1.047521667E1,-1.273252258E0,2.092798004E0,1.075784082E1
2.386874708E0,9.956245880E0,-1.206341400E0,2.135159912E0,1.025382853E1
2.396941708E0,9.482780457E0,-1.118773499E0,2.165546722E0,9.791035284E0
2.407007708E0,9.061107330E0,-1.057251434E0,2.191742249E0,9.382173561E0
2.417073708E0,8.708440704E0,-1.014739838E0,2.196831665E0,9.038401728E0
2.427139708E0,8.392447815E0,-1.021924896E0,2.187550964E0,8.732862649E0
2.437205708E0,8.227341156E0,-1.017583923E0,2.170486450E0,8.569459199E0
2.447272708E0,8.269553375E0,-1.095272369E0,2.124681702E0,8.608101238E0
2.457338208E0,8.269703064E0,-1.162781982E0,2.110012207E0,8.613489549E0
2.467404208E0,8.214767303E0,-1.200353851E0,2.048490143E0,8.550997783E0
2.477470208E0,8.247698822E0,-1.253643036E0,1.974693604E0,8.572955823E0
2.487536208E0,8.311166840E0,-1.335822144E0,1.898502045E0,8.629265615E0
2.497602208E0,8.368198242E0,-1.468895416E0,1.801354065E0,8.685002708E0
2.507669208E0,8.362360382E0,-1.567689972E0,1.706601105E0,8.677511760E0
2.517735208E0,8.323890381E0,-1.620530090E0,1.633702698E0,8.636101745E0
2.527801208E0,8.258775787E0,-1.651964722E0,1.574425964E0,8.568265989E0
2.537867208E0,8.191715240E0,-1.667532349E0,1.532962189E0,8.499107941E0
2.547933208E0,8.164022827E0,-1.670526123E0,1.544937286E0,8.475184804E0
2.558000208E0,8.165519714E0,-1.685644684E0,1.643133087E0,8.498058399E0
2.568066208E0,8.190517731E0,-1.701212311E0,1.797462158E0,8.556259360E0
2.578132208E0,8.330776062E0,-1.694476318E0,2.013013916E0,8.736435475E0
2.588198208E0,8.568182373E0,-1.702709198E0,2.208507385E0,9.010575601E0
2.598264208E0,8.776998138E0,-1.760189667E0,2.392624512E0,9.265992448E0
2.608330208E0,8.836873627E0,-1.793719940E0,2.547402649E0,9.370006776E0
2.618397208E0,8.804540863E0,-1.736389160E0,2.632126465E0,9.352169633E0
2.628463208E0,8.755442963E0,-1.665586395E0,2.705773315E0,9.314138111E0
2.638529208E0,8.730295258E0,-1.593586121E0,2.716101837E0,9.280882566E0
2.648595208E0,8.702902222E0,-1.506317596E0,2.725382538E0,9.243225073E0
2.658661208E0,8.699160004E0,-1.465452576E0,2.708916779E0,9.228280779E0
2.668728208E0,8.830586700E0,-1.451232147E0,2.695295105E0,9.346119618E0
2.678794208E0,9.040001221E0,-1.485361176E0,2.642604675E0,9.534740655E0
2.688860208E0,9.182055817E0,-1.521735535E0,2.611020355E0,9.666605162E0
2.698926208E0,9.289532318E0,-1.576222229E0,2.537523193E0,9.758017789E0
2.708992208E0,9.432784424E0,-1.672023010E0,2.431393890E0,9.883560046E0
2.719058208E0,9.621691589E0,-1.889969788E0,2.355052643E0,1.008440419E1
2.729125208E0,9.838440857E0,-2.179318085E0,2.309098206E0,1.033809849E1
2.739191208E0,9.978998566E0,-2.468965759E0,2.316882019E0,1.053774865E1
2.749257208E0,1.001686981E1,-2.703677673E0,2.357148285E0,1.063972283E1
2.759323208E0,1.009635452E1,-2.881358185E0,2.384241943E0,1.076676410E1
2.769389208E0,1.018167709E1,-3.068768463E0,2.436183929E0,1.090957746E1
2.779456208E0,1.026520340E1,-3.243455200E0,2.532733154E0,1.105934626E1
2.789522208E0,1.025397675E1,-3.354374542E0,2.640958099E0,1.110722861E1
